
Final Solution Fields: 

         I           rc            y+              Velocity      total viscosity    dissipation          tke             UG12            PTKE   
         2    0.2499972E-01    0.9005836E-02    0.4622010E-02    0.1849408E-04    0.4113843E+03    0.2958705E-06    0.1678339E+05    0.8210080E-06
         3    0.2499912E-01    0.2881867E-01    0.1474024E-01    0.1849408E-04    0.4086403E+03    0.2021688E-05    0.1676600E+05    0.1798603E-04
         4    0.2499840E-01    0.5259408E-01    0.2688803E-01    0.1849408E-04    0.4054017E+03    0.5268801E-05    0.1676554E+05    0.8585581E-04
         5    0.2499752E-01    0.8112457E-01    0.4150239E-01    0.1849408E-04    0.4016072E+03    0.1071477E-04    0.1676501E+05    0.2703047E-03
         6    0.2499648E-01    0.1153612E+00    0.5898897E-01    0.1849408E-04    0.3972348E+03    0.1944895E-04    0.1676435E+05    0.7000602E-03
         7    0.2499523E-01    0.1564451E+00    0.8000312E-01    0.1849409E-04    0.3922448E+03    0.3346206E-04    0.1676357E+05    0.1636722E-02
         8    0.2499372E-01    0.2057458E+00    0.1052312E+00    0.1849409E-04    0.3866565E+03    0.5644750E-04    0.1676262E+05    0.3628205E-02
         9    0.2499192E-01    0.2649066E+00    0.1354840E+00    0.1849411E-04    0.3805459E+03    0.9580817E-04    0.1676149E+05    0.7885773E-02
        10    0.2498975E-01    0.3358996E+00    0.1717595E+00    0.1849414E-04    0.3740615E+03    0.1670020E-03    0.1676009E+05    0.1723823E-01
        11    0.2498715E-01    0.4210913E+00    0.2153355E+00    0.1849422E-04    0.3674395E+03    0.3023720E-03    0.1675837E+05    0.3854300E-01
        12    0.2498404E-01    0.5233212E+00    0.2675826E+00    0.1849440E-04    0.3610588E+03    0.5656587E-03    0.1675626E+05    0.8829653E-01
        13    0.2498029E-01    0.6459970E+00    0.3302754E+00    0.1849485E-04    0.3554213E+03    0.1076155E-02    0.1675356E+05    0.2053133E+00
        14    0.2497580E-01    0.7932082E+00    0.4054970E+00    0.1849588E-04    0.3511954E+03    0.2041132E-02    0.1675003E+05    0.4767497E+00
        15    0.2497041E-01    0.9698616E+00    0.4957617E+00    0.1849821E-04    0.3492350E+03    0.3800425E-02    0.1674516E+05    0.1089139E+01
        16    0.2496395E-01    0.1181846E+01    0.6040082E+00    0.1850327E-04    0.3506125E+03    0.6884905E-02    0.1673801E+05    0.2424109E+01
        17    0.2495619E-01    0.1436226E+01    0.7338049E+00    0.1851388E-04    0.3566591E+03    0.1210504E-01    0.1672685E+05    0.5238523E+01
        18    0.2494687E-01    0.1741484E+01    0.8894129E+00    0.1853554E-04    0.3690110E+03    0.2067744E-01    0.1670829E+05    0.1099937E+02
        19    0.2493570E-01    0.2107792E+01    0.1075747E+01    0.1857878E-04    0.3896126E+03    0.3439794E-01    0.1667568E+05    0.2249542E+02
        20    0.2492229E-01    0.2547362E+01    0.1298590E+01    0.1866392E-04    0.4206808E+03    0.5591001E-01    0.1661637E+05    0.4494656E+02
        21    0.2490620E-01    0.3074847E+01    0.1564189E+01    0.1883010E-04    0.4644048E+03    0.8900713E-01    0.1650565E+05    0.8779006E+02
        22    0.2488689E-01    0.3707828E+01    0.1878886E+01    0.1915300E-04    0.5222272E+03    0.1389331E+00    0.1629705E+05    0.1669411E+03
        23    0.2486371E-01    0.4467405E+01    0.2247508E+01    0.1977668E-04    0.5933689E+03    0.2122120E+00    0.1590730E+05    0.3050581E+03
        24    0.2483591E-01    0.5378898E+01    0.2670391E+01    0.2096021E-04    0.6734441E+03    0.3150358E+00    0.1520756E+05    0.5216843E+03
        25    0.2480254E-01    0.6472690E+01    0.3139393E+01    0.2311375E-04    0.7530213E+03    0.4490192E+00    0.1405569E+05    0.8033130E+03
        26    0.2476250E-01    0.7785239E+01    0.3635809E+01    0.2680995E-04    0.8118387E+03    0.6055297E+00    0.1239759E+05    0.1078833E+04
        27    0.2471445E-01    0.9360298E+01    0.4134419E+01    0.3271986E-04    0.8292198E+03    0.7644042E+00    0.1037676E+05    0.1248958E+04
        28    0.2465678E-01    0.1125037E+02    0.4612978E+01    0.4149682E-04    0.7993600E+03    0.9024104E+00    0.8299396E+04    0.1264745E+04
        29    0.2458759E-01    0.1351846E+02    0.5058961E+01    0.5372449E-04    0.7332793E+03    0.1004733E+01    0.6445615E+04    0.1158288E+04
        30    0.2450456E-01    0.1624016E+02    0.5469304E+01    0.6995485E-04    0.6484985E+03    0.1068430E+01    0.4942040E+04    0.9945278E+03
        31    0.2440492E-01    0.1950621E+02    0.5846459E+01    0.9076748E-04    0.5595894E+03    0.1098323E+01    0.3785233E+04    0.8231962E+03
        32    0.2428536E-01    0.2342546E+02    0.6195031E+01    0.1168099E-03    0.4753097E+03    0.1101967E+01    0.2915335E+04    0.6687716E+03
        33    0.2414188E-01    0.2812856E+02    0.6519938E+01    0.1488175E-03    0.3996851E+03    0.1086718E+01    0.2264514E+04    0.5388636E+03
        34    0.2396971E-01    0.3377229E+02    0.6825648E+01    0.1876087E-03    0.3338929E+03    0.1058648E+01    0.1775588E+04    0.4330967E+03
        35    0.2376310E-01    0.4054476E+02    0.7115986E+01    0.2340490E-03    0.2776817E+03    0.1022397E+01    0.1405258E+04    0.3482496E+03
        36    0.2351517E-01    0.4867173E+02    0.7394201E+01    0.2889743E-03    0.2301908E+03    0.9813499E+00    0.1122156E+04    0.2805798E+03
        37    0.2321765E-01    0.5842409E+02    0.7663099E+01    0.3530747E-03    0.1903591E+03    0.9378837E+00    0.9038085E+03    0.2266717E+03
        38    0.2286063E-01    0.7012691E+02    0.7925168E+01    0.4267405E-03    0.1571132E+03    0.8935895E+00    0.7340461E+03    0.1836684E+03
        39    0.2243221E-01    0.8417031E+02    0.8182702E+01    0.5098846E-03    0.1294475E+03    0.8494405E+00    0.6011216E+03    0.1492627E+03
        40    0.2191810E-01    0.1010224E+03    0.8437878E+01    0.6017562E-03    0.1064584E+03    0.8059152E+00    0.4963474E+03    0.1216079E+03
        41    0.2130117E-01    0.1212449E+03    0.8692793E+01    0.7007805E-03    0.8735429E+02    0.7630803E+00    0.4131993E+03    0.9923463E+02
        42    0.2056086E-01    0.1455119E+03    0.8949468E+01    0.8044553E-03    0.7145444E+02    0.7206395E+00    0.3467098E+03    0.8097064E+02
        43    0.1967248E-01    0.1746323E+03    0.9209782E+01    0.9093296E-03    0.5818162E+02    0.6779600E+00    0.2930219E+03    0.6588238E+02
        44    0.1860642E-01    0.2095768E+03    0.9475363E+01    0.1011033E-02    0.4705265E+02    0.6340891E+00    0.2491251E+03    0.5323089E+02
        45    0.1732716E-01    0.2515101E+03    0.9747355E+01    0.1104246E-02    0.3766828E+02    0.5877738E+00    0.2126157E+03    0.4243526E+02
        46    0.1579204E-01    0.3018302E+03    0.1002608E+02    0.1182467E-02    0.2970427E+02    0.5375215E+00    0.1815632E+03    0.3305256E+02
        47    0.1394990E-01    0.3622142E+03    0.1031044E+02    0.1237494E-02    0.2290552E+02    0.4817496E+00    0.1543660E+03    0.2475702E+02
        48    0.1173933E-01    0.4346751E+03    0.1059688E+02    0.1258998E-02    0.1708714E+02    0.4191579E+00    0.1295774E+03    0.1732189E+02
        49    0.9086648E-02    0.5216282E+03    0.1087682E+02    0.1235890E-02    0.1215701E+02    0.3497713E+00    0.1055325E+03    0.1063087E+02
        50    0.5903427E-02    0.6259719E+03    0.1113004E+02    0.1164970E-02    0.8202353E+01    0.2782022E+00    0.7954822E+02    0.4862656E+01
        51    0.2083562E-02    0.7511843E+03    0.1130736E+02    0.1079250E-02    0.5713311E+01    0.2227444E+00    0.4642087E+02    0.1142907E+01

friction velocity (bottom wall): 0.5120123E+00
Reynolds Number: 0.2967446E+05
average velocity: 0.9270300E+01

LRN coefficients: 

       I            F1           F2               FMU             time-scale    Turbulent Viscosity
       2    0.1000000E+01    0.2518667E-05    0.5000000E+01    0.7192070E-09    0.2726237E-14
       3    0.1000000E+01    0.2568970E-04    0.5000000E+01    0.4947353E-08    0.5981461E-13
       4    0.1000000E+01    0.8515836E-04    0.5000000E+01    0.1299649E-07    0.2855724E-12
       5    0.1000000E+01    0.2014583E-03    0.5000000E+01    0.2667972E-07    0.8998095E-12
       6    0.1000000E+01    0.4046065E-03    0.5000000E+01    0.4896083E-07    0.2334831E-11
       7    0.1000000E+01    0.7380503E-03    0.5000000E+01    0.8530910E-07    0.5481002E-11
       8    0.1000000E+01    0.1264060E-02    0.5000000E+01    0.1459888E-06    0.1224406E-10
       9    0.1000000E+01    0.2071065E-02    0.5000000E+01    0.2517650E-06    0.2696373E-10
      10    0.1000000E+01    0.3283388E-02    0.5000000E+01    0.4464561E-06    0.6009666E-10
      11    0.1000000E+01    0.5073988E-02    0.5000000E+01    0.8229166E-06    0.1376188E-09
      12    0.1000000E+01    0.7680566E-02    0.3418920E+01    0.1566666E-05    0.3228599E-09
      13    0.1000000E+01    0.1142536E-01    0.2203442E+01    0.3027828E-05    0.7650712E-09
      14    0.1000000E+01    0.1673800E-01    0.1421837E+01    0.5811956E-05    0.1797370E-08
      15    0.1000000E+01    0.2417994E-01    0.9363152E+00    0.1088214E-04    0.4126320E-08
      16    0.1000000E+01    0.3446708E-01    0.6375769E+00    0.1963679E-04    0.9185341E-08
      17    0.1000000E+01    0.4848404E-01    0.4523224E+00    0.3394009E-04    0.1980257E-07
      18    0.1000000E+01    0.6728153E-01    0.3358238E+00    0.5603475E-04    0.4146293E-07
      19    0.1000000E+01    0.9205403E-01    0.2617497E+00    0.8828755E-04    0.8470565E-07
      20    0.1000000E+01    0.1241613E+00    0.2144927E+00    0.1329037E-03    0.1698373E-06
      21    0.1000000E+01    0.1656357E+00    0.1848504E+00    0.1916585E-03    0.3360218E-06
      22    0.1000000E+01    0.2220365E+00    0.1672960E+00    0.2660396E-03    0.6589188E-06
      23    0.1000000E+01    0.3087556E+00    0.1585927E+00    0.3576392E-03    0.1282603E-05
      24    0.1000000E+01    0.4260989E+00    0.1570376E+00    0.4677980E-03    0.2466131E-05
      25    0.1000000E+01    0.5270070E+00    0.1619178E+00    0.5962902E-03    0.4619674E-05
      26    0.1000000E+01    0.6229039E+00    0.1727875E+00    0.7458744E-03    0.8315873E-05
      27    0.1000000E+01    0.7160434E+00    0.1894547E+00    0.9218354E-03    0.1422578E-04
      28    0.1000000E+01    0.8003245E+00    0.2118945E+00    0.1128916E-02    0.2300275E-04
      29    0.1000000E+01    0.8705676E+00    0.2401551E+00    0.1370191E-02    0.3523041E-04
      30    0.1000000E+01    0.9238082E+00    0.2743464E+00    0.1647544E-02    0.5146078E-04
      31    0.1000000E+01    0.9599751E+00    0.3146251E+00    0.1962731E-02    0.7227340E-04
      32    0.1000000E+01    0.9816215E+00    0.3611341E+00    0.2318419E-02    0.9831580E-04
      33    0.1000000E+01    0.9928050E+00    0.4139163E+00    0.2718935E-02    0.1303234E-03
      34    0.1000000E+01    0.9976700E+00    0.4728145E+00    0.3170622E-02    0.1691147E-03
      35    0.1000000E+01    0.9993985E+00    0.5373676E+00    0.3681904E-02    0.2155549E-03
      36    0.1000000E+01    0.9998816E+00    0.6067104E+00    0.4263202E-02    0.2704802E-03
      37    0.1000000E+01    0.9999832E+00    0.6794888E+00    0.4926917E-02    0.3345806E-03
      38    0.1000000E+01    0.9999983E+00    0.7538148E+00    0.5687552E-02    0.4082464E-03
      39    0.1000000E+01    0.9999999E+00    0.8272946E+00    0.6562047E-02    0.4913905E-03
      40    0.1000000E+01    0.1000000E+01    0.8971616E+00    0.7570236E-02    0.5832621E-03
      41    0.1000000E+01    0.1000000E+01    0.9605417E+00    0.8735465E-02    0.6822864E-03
      42    0.1000000E+01    0.1000000E+01    0.1014846E+01    0.1008530E-01    0.7859612E-03
      43    0.1000000E+01    0.1000000E+01    0.1058232E+01    0.1165248E-01    0.8908355E-03
      44    0.1000000E+01    0.1000000E+01    0.1090026E+01    0.1347616E-01    0.9925389E-03
      45    0.1000000E+01    0.1000000E+01    0.1110943E+01    0.1560395E-01    0.1085752E-02
      46    0.1000000E+01    0.1000000E+01    0.1122990E+01    0.1809577E-01    0.1163973E-02
      47    0.1000000E+01    0.1000000E+01    0.1129033E+01    0.2103203E-01    0.1219000E-02
      48    0.1000000E+01    0.1000000E+01    0.1132187E+01    0.2453060E-01    0.1240504E-02
      49    0.1000000E+01    0.1000000E+01    0.1135262E+01    0.2877115E-01    0.1217396E-02
      50    0.1000000E+01    0.1000000E+01    0.1140219E+01    0.3391736E-01    0.1146476E-02
      51    0.1000000E+01    0.1000000E+01    0.1146293E+01    0.3898693E-01    0.1060756E-02
